42.0000 36.0000 1.0000
42.0200 34.0000 1.0000
42.0400 33.0000 1.0000
42.0600 31.0000 1.0000
42.0800 43.0000 1.0000
42.1000 33.0000 1.0000
42.1200 34.0000 1.0000
42.1400 31.0000 1.0000
42.1600 42.0000 1.0000
42.1800 43.0000 1.0000
42.2000 38.0000 1.0000
42.2200 45.0000 1.0000
42.2400 51.0000 1.0000
42.2600 53.0000 1.0000
42.2800 56.0000 1.0000
42.3000 67.0000 1.0000
42.3200 68.0000 1.0000
42.3400 64.0000 1.0000
42.3600 56.0000 1.0000
42.3800 67.0000 1.0000
42.4000 59.0000 1.0000
42.4200 61.0000 1.0000
42.4400 62.0000 1.0000
42.4600 79.0000 1.0000
42.4800 80.0000 1.0000
42.5000 102.0000 1.0000
42.5200 107.0000 1.0000
42.5400 109.0000 1.0000
42.5600 98.0000 1.0000
42.5800 124.0000 1.0000
42.6000 105.0000 1.0000
42.6200 125.0000 1.0000
42.6400 112.0000 1.0000
42.6600 112.0000 1.0000
42.6800 117.0000 1.0000
42.7000 167.0000 1.0000
42.7200 195.0000 1.0000
42.7400 204.0000 1.0000
42.7600 177.0000 1.0000
42.7800 211.0000 1.0000
42.8000 203.0000 1.0000
42.8200 224.0000 1.0000
42.8400 209.0000 1.0000
42.8600 235.0000 1.0000
42.8800 230.0000 1.0000
42.9000 239.0000 1.0000
42.9200 282.0000 1.0000
42.9400 308.0000 1.0000
42.9600 354.0000 1.0000
42.9800 405.0000 1.0000
43.0000 431.0000 1.0000
43.0200 443.0000 1.0000
43.0400 478.0000 1.0000
43.0600 539.0000 1.0000
43.0800 500.0000 1.0000
43.1000 546.0000 1.0000
43.1200 565.0000 1.0000
43.1400 657.0000 1.0000
43.1600 689.0000 1.0000
43.1800 794.0000 1.0000
43.2000 888.0000 1.0000
43.2200 998.0000 1.0000
43.2400 1148.0000 1.0000
43.2600 1284.0000 1.0000
43.2800 1453.0000 1.0000
43.3000 1801.0000 1.0000
43.3200 2081.0000 1.0000
43.3400 2636.0000 1.0000
43.3600 3300.0000 1.0000
43.3800 4061.0000 1.0000
43.4000 5031.0000 1.0000
43.4200 6402.0000 1.0000
43.4400 7723.0000 1.0000
43.4600 9620.0000 1.0000
43.4800 11390.0000 1.0000
43.5000 13649.0000 1.0000
43.5200 15890.0000 1.0000
43.5400 18209.0000 1.0000
43.5600 20445.0000 1.0000
43.5800 22975.0000 1.0000
43.6000 24501.0000 1.0000
43.6200 25896.0000 1.0000
43.6400 26605.0000 1.0000
43.6600 27125.0000 1.0000
43.6800 26446.0000 1.0000
43.7000 25625.0000 1.0000
43.7200 23317.0000 1.0000
43.7400 20686.0000 1.0000
43.7600 17757.0000 1.0000
43.7800 15028.0000 1.0000
43.8000 12266.0000 1.0000
43.8200 9523.0000 1.0000
43.8400 7542.0000 1.0000
43.8600 6113.0000 1.0000
43.8800 5342.0000 1.0000
43.9000 4962.0000 1.0000
43.9200 4862.0000 1.0000
43.9400 4994.0000 1.0000
43.9600 5204.0000 1.0000
43.9800 5406.0000 1.0000
44.0000 5596.0000 1.0000
44.0200 5287.0000 1.0000
44.0400 4776.0000 1.0000
44.0600 4343.0000 1.0000
44.0800 3735.0000 1.0000
44.1000 3195.0000 1.0000
44.1200 2866.0000 1.0000
44.1400 2489.0000 1.0000
44.1600 2410.0000 1.0000
44.1800 2339.0000 1.0000
44.2000 2490.0000 1.0000
44.2200 2437.0000 1.0000
44.2400 2561.0000 1.0000
44.2600 2482.0000 1.0000
44.2800 2262.0000 1.0000
44.3000 2047.0000 1.0000
44.3200 1799.0000 1.0000
44.3400 1534.0000 1.0000
44.3600 1356.0000 1.0000
44.3800 1182.0000 1.0000
44.4000 1252.0000 1.0000
44.4200 1147.0000 1.0000
44.4400 1242.0000 1.0000
44.4600 1320.0000 1.0000
44.4800 1335.0000 1.0000
44.5000 1283.0000 1.0000
44.5200 1136.0000 1.0000
44.5400 1042.0000 1.0000
44.5600 929.0000 1.0000
44.5800 806.0000 1.0000
44.6000 785.0000 1.0000
44.6200 698.0000 1.0000
44.6400 775.0000 1.0000
44.6600 825.0000 1.0000
44.6800 827.0000 1.0000
44.7000 904.0000 1.0000
44.7200 901.0000 1.0000
44.7400 901.0000 1.0000
44.7600 881.0000 1.0000
44.7800 835.0000 1.0000
44.8000 823.0000 1.0000
44.8200 806.0000 1.0000
44.8400 907.0000 1.0000
44.8600 961.0000 1.0000
44.8800 1170.0000 1.0000
44.9000 1347.0000 1.0000
44.9200 1655.0000 1.0000
44.9400 1983.0000 1.0000
44.9600 2180.0000 1.0000
44.9800 2416.0000 1.0000
45.0000 2508.0000 1.0000
45.0200 2539.0000 1.0000
45.0400 2520.0000 1.0000
45.0600 2474.0000 1.0000
45.0800 2392.0000 1.0000
45.1000 2116.0000 1.0000
45.1200 1930.0000 1.0000
45.1400 1780.0000 1.0000
45.1600 1530.0000 1.0000
45.1800 1413.0000 1.0000
45.2000 1169.0000 1.0000
45.2200 1106.0000 1.0000
45.2400 880.0000 1.0000
45.2600 833.0000 1.0000
45.2800 731.0000 1.0000
45.3000 712.0000 1.0000
45.3200 751.0000 1.0000
45.3400 796.0000 1.0000
45.3600 794.0000 1.0000
45.3800 764.0000 1.0000
45.4000 808.0000 1.0000
45.4200 805.0000 1.0000
45.4400 731.0000 1.0000
45.4600 748.0000 1.0000
45.4800 677.0000 1.0000
45.5000 625.0000 1.0000
45.5200 633.0000 1.0000
45.5400 600.0000 1.0000
45.5600 638.0000 1.0000
45.5800 645.0000 1.0000
45.6000 683.0000 1.0000
45.6200 729.0000 1.0000
45.6400 731.0000 1.0000
45.6600 808.0000 1.0000
45.6800 749.0000 1.0000
45.7000 782.0000 1.0000
45.7200 676.0000 1.0000
45.7400 741.0000 1.0000
45.7600 712.0000 1.0000
45.7800 735.0000 1.0000
45.8000 763.0000 1.0000
45.8200 784.0000 1.0000
45.8400 919.0000 1.0000
45.8600 943.0000 1.0000
45.8800 927.0000 1.0000
45.9000 977.0000 1.0000
45.9200 985.0000 1.0000
45.9400 1017.0000 1.0000
45.9600 971.0000 1.0000
45.9800 1093.0000 1.0000
46.0000 1072.0000 1.0000
46.0200 1156.0000 1.0000
46.0400 1246.0000 1.0000
46.0600 1420.0000 1.0000
46.0800 1512.0000 1.0000
46.1000 1691.0000 1.0000
46.1200 1725.0000 1.0000
46.1400 1930.0000 1.0000
46.1600 2070.0000 1.0000
46.1800 2376.0000 1.0000
46.2000 2550.0000 1.0000
46.2200 3007.0000 1.0000
46.2400 3496.0000 1.0000
46.2600 4347.0000 1.0000
46.2800 5044.0000 1.0000
46.3000 6772.0000 1.0000
46.3200 9096.0000 1.0000
46.3400 13767.0000 1.0000
46.3600 25722.0000 1.0000
46.3800 100117.0000 1.0000
46.4000 21389.0000 43.0962
46.4200 76542.0000 43.0962
46.4400 121736.0000 43.0962
46.4600 140049.0000 43.0962
46.4800 142447.0000 43.0962
46.5000 130641.0000 43.0962
46.5200 89852.0000 43.0962
46.5400 27979.9980 43.0962
46.5600 99283.0000 1.0000
46.5800 18303.0000 1.0000
46.6000 8601.0000 1.0000
46.6200 5093.0000 1.0000
46.6400 3548.0000 1.0000
46.6600 2541.0000 1.0000
46.6800 1947.0000 1.0000
46.7000 1472.0000 1.0000
46.7200 1163.0000 1.0000
46.7400 981.0000 1.0000
46.7600 794.0000 1.0000
46.7800 658.0000 1.0000
46.8000 524.0000 1.0000
46.8200 493.0000 1.0000
46.8400 417.0000 1.0000
46.8600 310.0000 1.0000
46.8800 271.0000 1.0000
46.9000 240.0000 1.0000
46.9200 223.0000 1.0000
46.9400 181.0000 1.0000
46.9600 157.0000 1.0000
46.9800 166.0000 1.0000
47.0000 131.0000 1.0000
